Day fraction since midnight on 	Accumulator pressure (Pa)	DO probe (mg/L)	Lab Air supply pressure (Pa)	air valve control ()	Max calibration pressure (Pa)	source pressure (Pa)	Max calibration pressure ()	Delta P ()	air flow rate(R * T )/ V ()	Fill time (s)	air fill model (Pa)
0.6344422900	13011.6738281250	-0.0118203796	24393.5839843750	0.5589597342	21954.2255859375	24393.5839843750	21954.2255859375	11954.2255859375	1349.7000000000	8.8569501266	21954.2255859375
0.6344538651	13017.8593750000	-0.0193458572	24393.5839843750	0.5599207747	21954.2255859375	24393.5839843750	21954.2255859375	11954.2255859375	1349.7000000000	8.8569501266	21954.2255859375
0.6344654351	12990.6943359375	-0.0162287559	24393.5839843750	0.5590136231	21954.2255859375	24393.5839843750	21954.2255859375	11954.2255859375	1349.7000000000	8.8569501266	21954.2255859375
0.6344769916	12988.6630859375	-0.0166805983	24393.5839843750	0.5586139533	21954.2255859375	24393.5839843750	21954.2255859375	11954.2255859375	1349.7000000000	8.8569501266	21954.2255859375
0.6344885826	13018.3818359375	-0.0241349842	24408.0097656250	0.5595180637	21967.2087890625	24408.0097656250	21967.2087890625	11967.2087890625	1349.7000000000	8.8665694518	21967.2087890625
0.6345001583	12987.5673828125	-0.0171850771	24408.0097656250	0.5594660440	21967.2087890625	24408.0097656250	21967.2087890625	11967.2087890625	1349.7000000000	8.8665694518	21967.2087890625
0.6345117139	13032.4531250000	-0.0193868726	24408.0097656250	0.5600911228	21967.2087890625	24408.0097656250	21967.2087890625	11967.2087890625	1349.7000000000	8.8665694518	11200.3787796974
0.6345232945	13106.9501953125	-0.0164324604	24408.0097656250	0.5623997123	21967.2087890625	24408.0097656250	21967.2087890625	11967.2087890625	1349.7000000000	8.8665694518	12554.8677114010
0.6345348803	13247.8750000000	-0.0124185076	24408.0097656250	0.5647175098	21967.2087890625	24408.0097656250	21967.2087890625	11967.2087890625	1349.7000000000	8.8665694518	13885.9004672050
0.6345464540	13463.6533203125	-0.0070449244	24375.4042968750	0.5722793591	21937.8638671875	24375.4042968750	21937.8638671875	11937.8638671875	1349.7000000000	8.8448276411	15235.7214615822
0.6345580179	13714.0527343750	0.0147993993	24375.4042968750	0.5774159158	21937.8638671875	24375.4042968750	21937.8638671875	11937.8638671875	1349.7000000000	8.8448276411	16553.4403307915
0.6345695957	14308.3486328125	0.0541986153	24375.4042968750	0.5972466503	21937.8638671875	24375.4042968750	21937.8638671875	11937.8638671875	1349.7000000000	8.8448276411	17950.3751197338
0.6345811757	14728.2460937500	0.0784108415	24375.4042968750	0.6093413843	21937.8638671875	24375.4042968750	21937.8638671875	11937.8638671875	1349.7000000000	8.8448276411	19284.2673330784
0.6345927283	15310.7792968750	0.1271080524	24375.4042968750	0.6299532137	21937.8638671875	24375.4042968750	21937.8638671875	11937.8638671875	1349.7000000000	8.8448276411	20634.9481598377
0.6346043113	16050.5097656250	0.1471894234	24371.7832031250	0.6568452177	21934.6048828125	24371.7832031250	21934.6048828125	11934.6048828125	1349.7000000000	8.8424130420	21934.6048828125
0.6346158849	16605.2363281250	0.1872311980	24371.7832031250	0.6736731689	21934.6048828125	24371.7832031250	21934.6048828125	11934.6048828125	1349.7000000000	8.8424130420	21934.6048828125
0.6346274525	16919.0175781250	0.2051880360	24371.7832031250	0.6910724536	21934.6048828125	24371.7832031250	21934.6048828125	11934.6048828125	1349.7000000000	8.8424130420	21934.6048828125
0.6346390257	17346.1835937500	0.2303183079	24371.7832031250	0.7049914320	21934.6048828125	24371.7832031250	21934.6048828125	11934.6048828125	1349.7000000000	8.8424130420	21934.6048828125
0.6346506177	17626.2285156250	0.2624996603	24371.7832031250	0.7216603284	21934.6048828125	24371.7832031250	21934.6048828125	11934.6048828125	1349.7000000000	8.8424130420	21934.6048828125
0.6346621815	17664.8886718750	0.2969928384	24043.1289062500	0.7415649644	21638.8160156250	24043.1289062500	21638.8160156250	11638.8160156250	1349.7000000000	8.6232614771	21638.8160156250
0.6346737682	17809.4238281250	0.3170920014	24043.1289062500	0.7514981459	21638.8160156250	24043.1289062500	21638.8160156250	11638.8160156250	1349.7000000000	8.6232614771	21638.8160156250
0.6346853461	17967.3027343750	0.3507177532	24043.1289062500	0.7572360318	21638.8160156250	24043.1289062500	21638.8160156250	11638.8160156250	1349.7000000000	8.6232614771	21638.8160156250
0.6346969036	17984.5859375000	0.3765521049	24043.1289062500	0.7593975619	21638.8160156250	24043.1289062500	21638.8160156250	11638.8160156250	1349.7000000000	8.6232614771	21638.8160156250
0.6347084896	18029.0000000000	0.3986425102	24043.1289062500	0.7642937986	21638.8160156250	24043.1289062500	21638.8160156250	11638.8160156250	1349.7000000000	8.6232614771	21638.8160156250
0.6347200453	18150.3828125000	0.4269500375	23281.7929687500	0.8290882352	20953.6136718750	23281.7929687500	20953.6136718750	10953.6136718750	1349.7000000000	8.1155913698	20953.6136718750
0.6347316373	18207.6328125000	0.4582119584	23281.7929687500	0.8379047345	20953.6136718750	23281.7929687500	20953.6136718750	10953.6136718750	1349.7000000000	8.1155913698	20953.6136718750
0.6347432014	18251.8222656250	0.4814945459	23281.7929687500	0.8339100615	20953.6136718750	23281.7929687500	20953.6136718750	10953.6136718750	1349.7000000000	8.1155913698	20953.6136718750
0.6347547578	18310.5859375000	0.5090692639	23281.7929687500	0.8383221703	20953.6136718750	23281.7929687500	20953.6136718750	10953.6136718750	1349.7000000000	8.1155913698	20953.6136718750
0.6347663630	18372.7812500000	0.5433328152	23281.7929687500	0.8493038745	20953.6136718750	23281.7929687500	20953.6136718750	10953.6136718750	1349.7000000000	8.1155913698	20953.6136718750
0.6347779073	18362.7050781250	0.5664054751	22646.0332031250	0.9011744146	20381.4298828125	22646.0332031250	20381.4298828125	10381.4298828125	1349.7000000000	7.6916573185	20381.4298828125
0.6347894892	18459.1152343750	0.6045147777	22646.0332031250	0.9153939231	20381.4298828125	22646.0332031250	20381.4298828125	10381.4298828125	1349.7000000000	7.6916573185	20381.4298828125
0.6348010621	18556.1054687500	0.6310026646	22646.0332031250	0.9226728562	20381.4298828125	22646.0332031250	20381.4298828125	10381.4298828125	1349.7000000000	7.6916573185	20381.4298828125
0.6348126320	18510.5039062500	0.6596198678	22646.0332031250	0.9236974441	20381.4298828125	22646.0332031250	20381.4298828125	10381.4298828125	1349.7000000000	7.6916573185	20381.4298828125
0.6348242116	18612.7597656250	0.6834772825	22646.0332031250	0.9328851162	20381.4298828125	22646.0332031250	20381.4298828125	10381.4298828125	1349.7000000000	7.6916573185	20381.4298828125
0.6348357991	18697.8554687500	0.7254030108	22297.0527343750	0.9987515115	20067.3474609375	22297.0527343750	20067.3474609375	10067.3474609375	1349.7000000000	7.4589519604	20067.3474609375
0.6348473703	18794.5957031250	0.7546620369	22297.0527343750	1.0125648608	20067.3474609375	22297.0527343750	20067.3474609375	10067.3474609375	1349.7000000000	7.4589519604	20067.3474609375
0.6348589440	18775.0117187500	0.7781749964	22297.0527343750	1.0022794017	20067.3474609375	22297.0527343750	20067.3474609375	10067.3474609375	1349.7000000000	7.4589519604	20067.3474609375
0.6348705128	18925.1308593750	0.8189878464	22297.0527343750	1.0215090451	20067.3474609375	22297.0527343750	20067.3474609375	10067.3474609375	1349.7000000000	7.4589519604	20067.3474609375
0.6348821004	18945.8378906250	0.8404801488	22297.0527343750	1.0341389159	20067.3474609375	22297.0527343750	20067.3474609375	10067.3474609375	1349.7000000000	7.4589519604	20067.3474609375
0.6348936494	18973.7832031250	0.8696530461	22007.5625000000	1.0822970183	19806.8062500000	22007.5625000000	19806.8062500000	9806.8062500000	1349.7000000000	7.2659155738	19806.8062500000
0.6349052441	18984.1230468750	0.9009860754	22007.5625000000	1.0704057198	19806.8062500000	22007.5625000000	19806.8062500000	9806.8062500000	1349.7000000000	7.2659155738	19806.8062500000
0.6349168239	19031.1152343750	0.9356809258	22007.5625000000	1.0957963123	19806.8062500000	22007.5625000000	19806.8062500000	9806.8062500000	1349.7000000000	7.2659155738	19806.8062500000
0.6349283715	19043.9707031250	0.9637437463	22007.5625000000	1.0916741682	19806.8062500000	22007.5625000000	19806.8062500000	9806.8062500000	1349.7000000000	7.2659155738	19806.8062500000
0.6349399691	19010.8437500000	0.9964699149	22007.5625000000	1.0909426909	19806.8062500000	22007.5625000000	19806.8062500000	9806.8062500000	1349.7000000000	7.2659155738	19806.8062500000
0.6349515275	19155.3164062500	1.0211455822	21900.2480468750	1.1236985699	19710.2232421875	21900.2480468750	19710.2232421875	9710.2232421875	1349.7000000000	7.1943567031	19710.2232421875
0.6349631056	19076.0097656250	1.0684968233	21900.2480468750	1.1218157586	19710.2232421875	21900.2480468750	19710.2232421875	9710.2232421875	1349.7000000000	7.1943567031	19710.2232421875
0.6349746860	19187.4062500000	1.0890266895	21900.2480468750	1.1460507397	19710.2232421875	21900.2480468750	19710.2232421875	9710.2232421875	1349.7000000000	7.1943567031	19710.2232421875
0.6349862551	19140.0820312500	1.1321649551	21900.2480468750	1.1306611275	19710.2232421875	21900.2480468750	19710.2232421875	9710.2232421875	1349.7000000000	7.1943567031	19710.2232421875
0.6349978415	19197.8300781250	1.1633757353	21900.2480468750	1.1215047637	19710.2232421875	21900.2480468750	19710.2232421875	9710.2232421875	1349.7000000000	7.1943567031	19710.2232421875
0.6350093835	19256.4667968750	1.1884471178	21844.9804687500	1.1752844192	19660.4824218750	21844.9804687500	19660.4824218750	9660.4824218750	1349.7000000000	7.1575034614	19660.4824218750
0.6350209627	19235.9687500000	1.2254641056	21844.9804687500	1.1674830000	19660.4824218750	21844.9804687500	19660.4824218750	9660.4824218750	1349.7000000000	7.1575034614	19660.4824218750
0.6350325445	19204.2324218750	1.2575387955	21844.9804687500	1.1596718659	19660.4824218750	21844.9804687500	19660.4824218750	9660.4824218750	1349.7000000000	7.1575034614	19660.4824218750
0.6350441299	19299.7500000000	1.2871561050	21844.9804687500	1.1847294744	19660.4824218750	21844.9804687500	19660.4824218750	9660.4824218750	1349.7000000000	7.1575034614	19660.4824218750
0.6350557084	19244.7031250000	1.3305630684	21844.9804687500	1.1695856148	19660.4824218750	21844.9804687500	19660.4824218750	9660.4824218750	1349.7000000000	7.1575034614	19660.4824218750
0.6350672552	19195.7011718750	1.3600388765	21878.3730468750	1.1521899423	19690.5357421875	21878.3730468750	19690.5357421875	9690.5357421875	1349.7000000000	7.1797701283	19690.5357421875
0.6350788436	19288.1132812500	1.3845121861	21878.3730468750	1.1617245564	19690.5357421875	21878.3730468750	19690.5357421875	9690.5357421875	1349.7000000000	7.1797701283	19690.5357421875
0.6350904213	19241.0761718750	1.4084284306	21878.3730468750	1.1589377820	19690.5357421875	21878.3730468750	19690.5357421875	9690.5357421875	1349.7000000000	7.1797701283	19690.5357421875
0.6351019844	19249.8398437500	1.4397970438	21878.3730468750	1.1557416360	19690.5357421875	21878.3730468750	19690.5357421875	9690.5357421875	1349.7000000000	7.1797701283	19690.5357421875
0.6351135702	19302.1738281250	1.4804519415	21878.3730468750	1.1801095052	19690.5357421875	21878.3730468750	19690.5357421875	9690.5357421875	1349.7000000000	7.1797701283	19690.5357421875
0.6351251494	19241.2871093750	1.5115067959	21919.4824218750	1.1586370385	19727.5341796875	21919.4824218750	19727.5341796875	9727.5341796875	1349.7000000000	7.2071824699	19727.5341796875
0.6351367127	19386.6699218750	1.5358495712	21919.4824218750	1.2076184979	19727.5341796875	21919.4824218750	19727.5341796875	9727.5341796875	1349.7000000000	7.2071824699	19727.5341796875
0.6351482719	19308.2148437500	1.5787549019	21919.4824218750	1.1859144474	19727.5341796875	21919.4824218750	19727.5341796875	9727.5341796875	1349.7000000000	7.2071824699	19727.5341796875
0.6351598576	19288.8847656250	1.6064792871	21919.4824218750	1.1650139755	19727.5341796875	21919.4824218750	19727.5341796875	9727.5341796875	1349.7000000000	7.2071824699	19727.5341796875
0.6351714517	19343.9589843750	1.6437498331	21919.4824218750	1.1804793178	19727.5341796875	21919.4824218750	19727.5341796875	9727.5341796875	1349.7000000000	7.2071824699	19727.5341796875
0.6351830317	19287.5195312500	1.6776989698	21976.2636718750	1.1340993407	19778.6373046875	21976.2636718750	19778.6373046875	9778.6373046875	1349.7000000000	7.2450450505	19778.6373046875
0.6351945863	19331.9843750000	1.7045114040	21976.2636718750	1.1606244337	19778.6373046875	21976.2636718750	19778.6373046875	9778.6373046875	1349.7000000000	7.2450450505	19778.6373046875
0.6352061677	19393.1406250000	1.7476354837	21976.2636718750	1.1465051853	19778.6373046875	21976.2636718750	19778.6373046875	9778.6373046875	1349.7000000000	7.2450450505	19778.6373046875
0.6352177436	19451.2226562500	1.7798933983	21976.2636718750	1.1839373645	19778.6373046875	21976.2636718750	19778.6373046875	9778.6373046875	1349.7000000000	7.2450450505	19778.6373046875
0.6352292978	19347.7187500000	1.8091503382	21976.2636718750	1.1425399294	19778.6373046875	21976.2636718750	19778.6373046875	9778.6373046875	1349.7000000000	7.2450450505	19778.6373046875
0.6352408251	19349.3925781250	1.8384805918	22021.7929687500	1.1308441020	19819.6136718750	22021.7929687500	19819.6136718750	9819.6136718750	1349.7000000000	7.2754046617	19819.6136718750
0.6352524450	19321.3437500000	1.8787492514	22021.7929687500	1.1385855802	19819.6136718750	22021.7929687500	19819.6136718750	9819.6136718750	1349.7000000000	7.2754046617	19819.6136718750
0.6352640063	19309.1171875000	1.8988471031	22021.7929687500	1.1594328255	19819.6136718750	22021.7929687500	19819.6136718750	9819.6136718750	1349.7000000000	7.2754046617	19819.6136718750
0.6352756238	19420.8710937500	1.9367280006	22021.7929687500	1.1685827751	19819.6136718750	22021.7929687500	19819.6136718750	9819.6136718750	1349.7000000000	7.2754046617	19819.6136718750
0.6352871794	19303.4238281250	1.9688861370	22021.7929687500	1.1386319005	19819.6136718750	22021.7929687500	19819.6136718750	9819.6136718750	1349.7000000000	7.2754046617	19819.6136718750
0.6352987395	19342.0507812500	2.0060768127	22051.9296875000	1.1307040007	19846.7367187500	22051.9296875000	19846.7367187500	9846.7367187500	1349.7000000000	7.2955002732	19846.7367187500
0.6353103222	19377.3535156250	2.0340793133	22051.9296875000	1.1271315025	19846.7367187500	22051.9296875000	19846.7367187500	9846.7367187500	1349.7000000000	7.2955002732	19846.7367187500
0.6353219054	19387.3242187500	2.0643994808	22051.9296875000	1.1614993183	19846.7367187500	22051.9296875000	19846.7367187500	9846.7367187500	1349.7000000000	7.2955002732	19846.7367187500
0.6353334857	19316.3125000000	2.0846960545	22051.9296875000	1.1166390618	19846.7367187500	22051.9296875000	19846.7367187500	9846.7367187500	1349.7000000000	7.2955002732	19846.7367187500
0.6353450483	19475.1289062500	2.1179609299	22051.9296875000	1.1697475644	19846.7367187500	22051.9296875000	19846.7367187500	9846.7367187500	1349.7000000000	7.2955002732	19846.7367187500
0.6353566245	19498.0019531250	2.1410403252	22096.2246093750	1.1532133401	19886.6021484375	22096.2246093750	19886.6021484375	9886.6021484375	1349.7000000000	7.3250367848	19886.6021484375
0.6353681986	19348.6816406250	2.1707181931	22096.2246093750	1.1359310963	19886.6021484375	22096.2246093750	19886.6021484375	9886.6021484375	1349.7000000000	7.3250367848	19886.6021484375
0.6353797731	19464.0683593750	2.1998710632	22096.2246093750	1.1588609342	19886.6021484375	22096.2246093750	19886.6021484375	9886.6021484375	1349.7000000000	7.3250367848	19886.6021484375
0.6353913343	19419.2031250000	2.2219407558	22096.2246093750	1.1442212728	19886.6021484375	22096.2246093750	19886.6021484375	9886.6021484375	1349.7000000000	7.3250367848	19886.6021484375
0.6354029240	19408.3144531250	2.2543303967	22096.2246093750	1.1694220389	19886.6021484375	22096.2246093750	19886.6021484375	9886.6021484375	1349.7000000000	7.3250367848	19886.6021484375
0.6354144868	19392.3144531250	2.2825186253	22044.9335937500	1.1541826574	19840.4402343750	22044.9335937500	19840.4402343750	9840.4402343750	1349.7000000000	7.2908351740	19840.4402343750
0.6354260529	19392.4042968750	2.3126947880	22044.9335937500	1.1524200890	19840.4402343750	22044.9335937500	19840.4402343750	9840.4402343750	1349.7000000000	7.2908351740	19840.4402343750
0.6354376553	19396.3789062500	2.3415286541	22044.9335937500	1.1441102256	19840.4402343750	22044.9335937500	19840.4402343750	9840.4402343750	1349.7000000000	7.2908351740	19840.4402343750
0.6354492278	19363.4550781250	2.3721292019	22044.9335937500	1.1259080477	19840.4402343750	22044.9335937500	19840.4402343750	9840.4402343750	1349.7000000000	7.2908351740	19840.4402343750
0.6354608021	19455.6093750000	2.4116480350	22044.9335937500	1.1764098405	19840.4402343750	22044.9335937500	19840.4402343750	9840.4402343750	1349.7000000000	7.2908351740	19840.4402343750
0.6354723601	19417.7089843750	2.4291043282	22084.8671875000	1.1733446194	19876.3804687500	22084.8671875000	19876.3804687500	9876.3804687500	1349.7000000000	7.3174634873	19876.3804687500
0.6354839458	19359.1425781250	2.4643454552	22084.8671875000	1.1210332372	19876.3804687500	22084.8671875000	19876.3804687500	9876.3804687500	1349.7000000000	7.3174634873	19876.3804687500
0.6354955039	19440.8437500000	2.4877705574	22084.8671875000	1.1335849026	19876.3804687500	22084.8671875000	19876.3804687500	9876.3804687500	1349.7000000000	7.3174634873	19876.3804687500
0.6355070930	19234.4082031250	2.5146138668	22084.8671875000	1.1203398696	19876.3804687500	22084.8671875000	19876.3804687500	9876.3804687500	1349.7000000000	7.3174634873	19876.3804687500
0.6355186110	19369.8808593750	2.5543260574	22084.8671875000	1.1325339076	19876.3804687500	22084.8671875000	19876.3804687500	9876.3804687500	1349.7000000000	7.3174634873	19876.3804687500
0.6355302355	19200.7617187500	2.5849647522	21962.8710937500	1.1303535592	19766.5839843750	21962.8710937500	19766.5839843750	9766.5839843750	1349.7000000000	7.2361146806	19766.5839843750
0.6355418077	19167.9160156250	2.6155905724	21962.8710937500	1.1301859727	19766.5839843750	21962.8710937500	19766.5839843750	9766.5839843750	1349.7000000000	7.2361146806	19766.5839843750
0.6355533798	19165.2675781250	2.6511771679	21962.8710937500	1.1313738145	19766.5839843750	21962.8710937500	19766.5839843750	9766.5839843750	1349.7000000000	7.2361146806	19766.5839843750
0.6355649609	19096.3007812500	2.6766991615	21962.8710937500	1.1036995194	19766.5839843750	21962.8710937500	19766.5839843750	9766.5839843750	1349.7000000000	7.2361146806	19766.5839843750
0.6355765393	19022.1542968750	2.7488846779	21962.8710937500	1.0881499223	19766.5839843750	21962.8710937500	19766.5839843750	9766.5839843750	1349.7000000000	7.2361146806	19766.5839843750
0.6355881067	19076.9785156250	2.8345665932	21666.0859375000	1.1759977406	19499.4773437500	21666.0859375000	19499.4773437500	9499.4773437500	1349.7000000000	7.0382139318	19499.4773437500
0.6355996858	19030.2460937500	2.9158699512	21666.0859375000	1.1560743471	19499.4773437500	21666.0859375000	19499.4773437500	9499.4773437500	1349.7000000000	7.0382139318	19499.4773437500
0.6356112499	19002.2695312500	2.9738757610	21666.0859375000	1.1643629256	19499.4773437500	21666.0859375000	19499.4773437500	9499.4773437500	1349.7000000000	7.0382139318	19499.4773437500
0.6356228286	18997.5937500000	3.0310192108	21666.0859375000	1.1461613404	19499.4773437500	21666.0859375000	19499.4773437500	9499.4773437500	1349.7000000000	7.0382139318	19499.4773437500
0.6356343880	19058.6230468750	3.0826032162	21666.0859375000	1.1575712981	19499.4773437500	21666.0859375000	19499.4773437500	9499.4773437500	1349.7000000000	7.0382139318	19499.4773437500
0.6356459705	18996.3203125000	3.1241128445	21565.5878906250	1.1644751034	19409.0291015625	21565.5878906250	19409.0291015625	9409.0291015625	1349.7000000000	6.9712003420	19409.0291015625
